% Density Profile of Hard Spheres at a Hard Flat Wall: rho(z), rho(z < 0.5) = 0
% Bulk density: rho (95% CI) = 0.85691866(0.00000433)
%
% rho_i is the average density in the interval [z_i-0.01, z_i+0.01]
%
%  z_i    rho_i     95% CI 
 0.510  7.1434255  0.0004059
 0.530  5.6966596  0.0002924
 0.550  4.5630358  0.0002296
 0.570  3.6720352  0.0001913
 0.590  2.9702559  0.0001619
 0.610  2.4154181  0.0001425
 0.630  1.9761309  0.0001311
 0.650  1.6268439  0.0001196
 0.670  1.3483351  0.0001108
 0.690  1.1256610  0.0001022
 0.710  0.9469973  0.0000954
 0.730  0.8031472  0.0000904
 0.750  0.6869939  0.0000844
 0.770  0.5928965  0.0000794
 0.790  0.5164968  0.0000757
 0.810  0.4542666  0.0000706
 0.830  0.4035183  0.0000658
 0.850  0.3621957  0.0000639
 0.870  0.3284787  0.0000605
 0.890  0.3011020  0.0000580
 0.910  0.2790407  0.0000558
 0.930  0.2615448  0.0000544
 0.950  0.2478760  0.0000533
 0.970  0.2376521  0.0000526
 0.990  0.2305936  0.0000524
 1.010  0.2263595  0.0000516
 1.030  0.2249940  0.0000529
 1.050  0.2263999  0.0000528
 1.070  0.2307339  0.0000522
 1.090  0.2381395  0.0000552
 1.110  0.2489811  0.0000565
 1.130  0.2637171  0.0000579
 1.150  0.2830402  0.0000604
 1.170  0.3076345  0.0000619
 1.190  0.3387804  0.0000656
 1.210  0.3776682  0.0000683
 1.230  0.4259304  0.0000727
 1.250  0.4855550  0.0000776
 1.270  0.5584915  0.0000830
 1.290  0.6471289  0.0000877
 1.310  0.7538713  0.0000955
 1.330  0.8801819  0.0001063
 1.350  1.0265918  0.0001169
 1.370  1.1898265  0.0001267
 1.390  1.3605182  0.0001424
 1.410  1.5214852  0.0001536
 1.430  1.6556998  0.0001621
 1.450  1.7517743  0.0001625
 1.470  1.8056986  0.0001622
 1.490  1.8185424  0.0001522
 1.510  1.7907912  0.0001484
 1.530  1.7172836  0.0001402
 1.550  1.6146792  0.0001325
 1.570  1.4987410  0.0001255
 1.590  1.3795926  0.0001193
 1.610  1.2634228  0.0001141
 1.630  1.1542918  0.0001100
 1.650  1.0539467  0.0001047
 1.670  0.9632291  0.0001008
 1.690  0.8821807  0.0000984
 1.710  0.8106633  0.0000943
 1.730  0.7479998  0.0000909
 1.750  0.6935625  0.0000883
 1.770  0.6466708  0.0000866
 1.790  0.6065696  0.0000841
 1.810  0.5726607  0.0000816
 1.830  0.5443790  0.0000796
 1.850  0.5212603  0.0000780
 1.870  0.5028902  0.0000780
 1.890  0.4888944  0.0000765
 1.910  0.4790040  0.0000745
 1.930  0.4731490  0.0000763
 1.950  0.4709432  0.0000738
 1.970  0.4724747  0.0000752
 1.990  0.4777564  0.0000757
 2.010  0.4869309  0.0000755
 2.030  0.4998125  0.0000780
 2.050  0.5167828  0.0000783
 2.070  0.5378952  0.0000800
 2.090  0.5634453  0.0000830
 2.110  0.5935673  0.0000834
 2.130  0.6283224  0.0000881
 2.150  0.6679991  0.0000892
 2.170  0.7123356  0.0000916
 2.190  0.7612617  0.0000983
 2.210  0.8141012  0.0001002
 2.230  0.8700820  0.0001024
 2.250  0.9279934  0.0001090
 2.270  0.9863201  0.0001132
 2.290  1.0430064  0.0001196
 2.310  1.0958285  0.0001223
 2.330  1.1428754  0.0001230
 2.350  1.1820655  0.0001235
 2.370  1.2118298  0.0001250
 2.390  1.2311892  0.0001261
 2.410  1.2396827  0.0001233
 2.430  1.2373816  0.0001251
 2.450  1.2249896  0.0001206
 2.470  1.2036531  0.0001163
 2.490  1.1749187  0.0001146
 2.510  1.1401970  0.0001127
 2.530  1.1012003  0.0001098
 2.550  1.0596179  0.0001078
 2.570  1.0167368  0.0001042
 2.590  0.9739276  0.0001016
 2.610  0.9322769  0.0000998
 2.630  0.8923262  0.0000986
 2.650  0.8548984  0.0000961
 2.670  0.8201518  0.0000965
 2.690  0.7885133  0.0000945
 2.710  0.7601047  0.0000925
 2.730  0.7348678  0.0000912
 2.750  0.7129470  0.0000900
 2.770  0.6943695  0.0000874
 2.790  0.6788611  0.0000881
 2.810  0.6665808  0.0000864
 2.830  0.6572439  0.0000864
 2.850  0.6510182  0.0000874
 2.870  0.6477298  0.0000862
 2.890  0.6473042  0.0000863
 2.910  0.6496672  0.0000865
 2.930  0.6548879  0.0000871
 2.950  0.6627262  0.0000885
 2.970  0.6734136  0.0000891
 2.990  0.6866932  0.0000876
 3.010  0.7023193  0.0000907
 3.030  0.7204981  0.0000915
 3.050  0.7407520  0.0000916
 3.070  0.7629696  0.0000944
 3.090  0.7869165  0.0000950
 3.110  0.8122475  0.0000967
 3.130  0.8383240  0.0000982
 3.150  0.8650310  0.0001013
 3.170  0.8913817  0.0001015
 3.190  0.9170070  0.0001044
 3.210  0.9412836  0.0001058
 3.230  0.9635771  0.0001074
 3.250  0.9832684  0.0001104
 3.270  0.9997724  0.0001084
 3.290  1.0129632  0.0001091
 3.310  1.0222528  0.0001105
 3.330  1.0276729  0.0001096
 3.350  1.0290183  0.0001091
 3.370  1.0268270  0.0001095
 3.390  1.0208452  0.0001075
 3.410  1.0117460  0.0001063
 3.430  0.9997018  0.0001051
 3.450  0.9852295  0.0001028
 3.470  0.9690260  0.0001025
 3.490  0.9514063  0.0001018
 3.510  0.9327587  0.0001006
 3.530  0.9138188  0.0001015
 3.550  0.8947348  0.0000991
 3.570  0.8759803  0.0000976
 3.590  0.8576712  0.0000971
 3.610  0.8405858  0.0000970
 3.630  0.8244878  0.0000966
 3.650  0.8096148  0.0000940
 3.670  0.7962866  0.0000927
 3.690  0.7844866  0.0000953
 3.710  0.7743461  0.0000933
 3.730  0.7659132  0.0000928
 3.750  0.7592179  0.0000917
 3.770  0.7543769  0.0000922
 3.790  0.7512856  0.0000912
 3.810  0.7498509  0.0000905
 3.830  0.7501388  0.0000907
 3.850  0.7521587  0.0000914
 3.870  0.7558496  0.0000906
 3.890  0.7609448  0.0000913
 3.910  0.7675604  0.0000929
 3.930  0.7756080  0.0000928
 3.950  0.7846992  0.0000925
 3.970  0.7950226  0.0000928
 3.990  0.8061903  0.0000964
 4.010  0.8180978  0.0000973
 4.030  0.8306111  0.0000972
 4.050  0.8433805  0.0000985
 4.070  0.8561778  0.0000991
 4.090  0.8687290  0.0000987
 4.110  0.8809271  0.0001003
 4.130  0.8924464  0.0001019
 4.150  0.9030654  0.0001012
 4.170  0.9125133  0.0001019
 4.190  0.9205216  0.0001009
 4.210  0.9271180  0.0001020
 4.230  0.9322787  0.0001026
 4.250  0.9356297  0.0001027
 4.270  0.9374181  0.0000996
 4.290  0.9374348  0.0001032
 4.310  0.9359887  0.0001029
 4.330  0.9328912  0.0001012
 4.350  0.9285552  0.0000995
 4.370  0.9230430  0.0001005
 4.390  0.9163071  0.0000992
 4.410  0.9089438  0.0000984
 4.430  0.9007323  0.0000991
 4.450  0.8920653  0.0000984
 4.470  0.8830290  0.0000963
 4.490  0.8739968  0.0000959
 4.510  0.8650889  0.0000960
 4.530  0.8563722  0.0000960
 4.550  0.8479195  0.0000966
 4.570  0.8400363  0.0000958
 4.590  0.8327573  0.0000931
 4.610  0.8260856  0.0000936
 4.630  0.8202718  0.0000950
 4.650  0.8152622  0.0000945
 4.670  0.8110547  0.0000945
 4.690  0.8077994  0.0000942
 4.710  0.8055196  0.0000954
 4.730  0.8041676  0.0000944
 4.750  0.8037982  0.0000948
 4.770  0.8041577  0.0000942
 4.790  0.8055710  0.0000942
 4.810  0.8077661  0.0000948
 4.830  0.8107321  0.0000950
 4.850  0.8143518  0.0000954
 4.870  0.8187079  0.0000950
 4.890  0.8236157  0.0000953
 4.910  0.8290221  0.0000959
 4.930  0.8347087  0.0000957
 4.950  0.8407176  0.0000971
 4.970  0.8469948  0.0000967
 4.990  0.8532656  0.0000953
 5.010  0.8593668  0.0000976
 5.030  0.8652813  0.0000977
 5.050  0.8709207  0.0000982
 5.070  0.8761808  0.0000993
 5.090  0.8809324  0.0001001
 5.110  0.8850722  0.0000998
 5.130  0.8885516  0.0001012
 5.150  0.8914295  0.0000982
 5.170  0.8934979  0.0001005
 5.190  0.8948182  0.0001007
 5.210  0.8953774  0.0001005
 5.230  0.8952322  0.0000990
 5.250  0.8943074  0.0000985
 5.270  0.8928308  0.0000975
 5.290  0.8905915  0.0000985
 5.310  0.8878783  0.0000978
 5.330  0.8846340  0.0000980
 5.350  0.8810083  0.0000974
 5.370  0.8770766  0.0000980
 5.390  0.8730298  0.0000979
 5.410  0.8686141  0.0000956
 5.430  0.8643512  0.0000955
 5.450  0.8600553  0.0000981
 5.470  0.8557485  0.0000962
 5.490  0.8517282  0.0000949
 5.510  0.8478755  0.0000960
 5.530  0.8443751  0.0000971
 5.550  0.8412086  0.0000960
 5.570  0.8382432  0.0000964
 5.590  0.8359306  0.0000959
 5.610  0.8339126  0.0000959
 5.630  0.8325423  0.0000973
 5.650  0.8314775  0.0000941
 5.670  0.8308986  0.0000963
 5.690  0.8309392  0.0000971
 5.710  0.8312076  0.0000966
 5.730  0.8319596  0.0000963
 5.750  0.8333128  0.0000962
 5.770  0.8348760  0.0000961
 5.790  0.8368654  0.0000959
 5.810  0.8390923  0.0000962
 5.830  0.8416347  0.0000954
 5.850  0.8443707  0.0000965
 5.870  0.8472826  0.0000959
 5.890  0.8502607  0.0000989
 5.910  0.8532849  0.0000965
 5.930  0.8562898  0.0000973
 5.950  0.8592132  0.0000967
 5.970  0.8619532  0.0000965
 5.990  0.8646167  0.0000981
 6.010  0.8670294  0.0000991
 6.030  0.8692819  0.0001006
 6.050  0.8711843  0.0000985
 6.070  0.8727514  0.0000996
 6.090  0.8738612  0.0000980
 6.110  0.8747209  0.0000969
 6.130  0.8752530  0.0000968
 6.150  0.8754494  0.0000969
 6.170  0.8752613  0.0000978
 6.190  0.8747255  0.0000965
 6.210  0.8739124  0.0000974
 6.230  0.8727829  0.0000978
 6.250  0.8714113  0.0000972
 6.270  0.8698455  0.0000992
 6.290  0.8681047  0.0000957
 6.310  0.8661198  0.0000975
 6.330  0.8640890  0.0000985
 6.350  0.8620621  0.0000957
 6.370  0.8599480  0.0000978
 6.390  0.8578499  0.0000974
 6.410  0.8558456  0.0000983
 6.430  0.8538369  0.0000957
 6.450  0.8520231  0.0000956
 6.470  0.8503183  0.0000957
 6.490  0.8488089  0.0000957
 6.510  0.8474657  0.0000961
 6.530  0.8463618  0.0000952
 6.550  0.8455651  0.0000968
 6.570  0.8448149  0.0000961
 6.590  0.8443928  0.0000964
 6.610  0.8442057  0.0000953
 6.630  0.8442648  0.0000964
 6.650  0.8445631  0.0000965
 6.670  0.8450977  0.0000951
 6.690  0.8457207  0.0000962
 6.710  0.8465990  0.0000980
 6.730  0.8476073  0.0000972
 6.750  0.8487127  0.0000982
 6.770  0.8499835  0.0000967
 6.790  0.8513310  0.0000967
 6.810  0.8528135  0.0000982
 6.830  0.8541913  0.0000962
 6.850  0.8556918  0.0000973
 6.870  0.8571125  0.0000969
 6.890  0.8584767  0.0000971
 6.910  0.8597509  0.0000968
 6.930  0.8610093  0.0000975
 6.950  0.8620570  0.0000973
 6.970  0.8631418  0.0000977
 6.990  0.8640168  0.0000990
 7.010  0.8647361  0.0000988
 7.030  0.8651439  0.0000972
 7.050  0.8655923  0.0000998
 7.070  0.8657758  0.0000975
 7.090  0.8657991  0.0000978
 7.110  0.8657240  0.0000957
 7.130  0.8653179  0.0000976
 7.150  0.8649323  0.0000966
 7.170  0.8643831  0.0000977
 7.190  0.8637449  0.0000980
 7.210  0.8629413  0.0000970
 7.230  0.8620661  0.0000953
 7.250  0.8611991  0.0000976
 7.270  0.8601665  0.0000962
 7.290  0.8591345  0.0000965
 7.310  0.8581253  0.0000961
 7.330  0.8571280  0.0000971
 7.350  0.8560675  0.0000968
 7.370  0.8552244  0.0000970
 7.390  0.8543005  0.0000971
 7.410  0.8535236  0.0000959
 7.430  0.8528424  0.0000973
 7.450  0.8522159  0.0000964
 7.470  0.8516319  0.0000962
 7.490  0.8512323  0.0000961
 7.510  0.8509980  0.0000957
 7.530  0.8507985  0.0000948
 7.550  0.8507492  0.0000949
 7.570  0.8508521  0.0000967
 7.590  0.8510397  0.0000960
 7.610  0.8512000  0.0000949
 7.630  0.8515865  0.0000949
 7.650  0.8519878  0.0000955
 7.670  0.8525182  0.0000959
 7.690  0.8531366  0.0000957
 7.710  0.8537763  0.0000970
 7.730  0.8544378  0.0000962
 7.750  0.8551651  0.0000962
 7.770  0.8558735  0.0000972
 7.790  0.8565763  0.0000966
 7.810  0.8572543  0.0000964
 7.830  0.8578934  0.0000973
 7.850  0.8585370  0.0000960
 7.870  0.8591388  0.0000982
 7.890  0.8597065  0.0000995
 7.910  0.8601134  0.0000973
 7.930  0.8604497  0.0000969
 7.950  0.8607709  0.0000962
 7.970  0.8609165  0.0000966
 7.990  0.8611367  0.0000965
 8.010  0.8612562  0.0000965
 8.030  0.8611918  0.0000982
 8.050  0.8611339  0.0000967
 8.070  0.8609133  0.0000977
 8.090  0.8607692  0.0000973
 8.110  0.8603469  0.0000969
 8.130  0.8601001  0.0000977
 8.150  0.8596672  0.0000963
 8.170  0.8592372  0.0000967
 8.190  0.8587982  0.0000967
 8.210  0.8583922  0.0000974
 8.230  0.8577775  0.0000953
 8.250  0.8573410  0.0000958
 8.270  0.8568420  0.0000964
 8.290  0.8563593  0.0000960
 8.310  0.8559802  0.0000955
 8.330  0.8555177  0.0000970
 8.350  0.8551628  0.0000976
 8.370  0.8548330  0.0000965
 8.390  0.8545610  0.0000973
 8.410  0.8543070  0.0000962
 8.430  0.8540848  0.0000964
 8.450  0.8540618  0.0000984
 8.470  0.8539521  0.0000970
 8.490  0.8540243  0.0000964
 8.510  0.8539448  0.0000958
 8.530  0.8540855  0.0000970
 8.550  0.8542364  0.0000958
 8.570  0.8543971  0.0000954
 8.590  0.8546164  0.0000973
 8.610  0.8548837  0.0000964
 8.630  0.8551219  0.0000973
 8.650  0.8554854  0.0000947
 8.670  0.8557693  0.0000966
 8.690  0.8562318  0.0000959
 8.710  0.8565298  0.0000973
 8.730  0.8569512  0.0000959
 8.750  0.8572104  0.0000978
 8.770  0.8574888  0.0000958
 8.790  0.8577861  0.0000957
 8.810  0.8580168  0.0000962
 8.830  0.8583775  0.0000958
 8.850  0.8586069  0.0000960
 8.870  0.8586678  0.0000969
 8.890  0.8588035  0.0000981
 8.910  0.8589346  0.0000970
 8.930  0.8590045  0.0000971
 8.950  0.8589894  0.0000962
 8.970  0.8589026  0.0000946
 8.990  0.8589076  0.0000956
 9.010  0.8588040  0.0000982
 9.030  0.8587464  0.0000959
 9.050  0.8585781  0.0000969
 9.070  0.8584009  0.0000952
 9.090  0.8582221  0.0000959
 9.110  0.8579995  0.0000975
 9.130  0.8577572  0.0000953
 9.150  0.8575305  0.0000976
 9.170  0.8572758  0.0000970
 9.190  0.8570242  0.0000961
 9.210  0.8567363  0.0000973
 9.230  0.8565816  0.0000967
 9.250  0.8563347  0.0000978
 9.270  0.8561762  0.0000973
 9.290  0.8559715  0.0000964
 9.310  0.8557825  0.0000977
 9.330  0.8557486  0.0000960
 9.350  0.8556615  0.0000979
 9.370  0.8556333  0.0000967
 9.390  0.8554988  0.0000955
 9.410  0.8555518  0.0000975
 9.430  0.8554511  0.0000964
 9.450  0.8555123  0.0000954
 9.470  0.8555558  0.0000971
 9.490  0.8555644  0.0000964
 9.510  0.8557640  0.0000967
 9.530  0.8558580  0.0000957
 9.550  0.8560131  0.0000963
 9.570  0.8560745  0.0000964
 9.590  0.8562972  0.0000969
 9.610  0.8564516  0.0000965
 9.630  0.8566402  0.0000964
 9.650  0.8567948  0.0000954
 9.670  0.8569157  0.0000962
 9.690  0.8571659  0.0000963
 9.710  0.8572711  0.0000972
 9.730  0.8574178  0.0000969
 9.750  0.8574241  0.0000952
 9.770  0.8576821  0.0000958
 9.790  0.8576999  0.0000957
 9.810  0.8578007  0.0000968
 9.830  0.8579089  0.0000964
 9.850  0.8578319  0.0000954
 9.870  0.8578546  0.0000990
 9.890  0.8578539  0.0000965
 9.910  0.8578869  0.0000964
 9.930  0.8579143  0.0000970
 9.950  0.8577911  0.0000965
 9.970  0.8577588  0.0000955
 9.990  0.8576506  0.0000955
10.010  0.8575971  0.0000967
10.030  0.8574780  0.0000965
10.050  0.8575033  0.0000972
10.070  0.8573054  0.0000970
10.090  0.8571815  0.0000945
10.110  0.8571023  0.0000957
10.130  0.8569665  0.0000948
10.150  0.8568158  0.0000971
10.170  0.8566896  0.0000967
10.190  0.8566554  0.0000963
10.210  0.8565883  0.0000979
10.230  0.8564461  0.0000972
10.250  0.8563941  0.0000981
10.270  0.8563236  0.0000976
10.290  0.8563156  0.0000979
10.310  0.8563129  0.0000975
10.330  0.8562183  0.0000950
10.350  0.8562679  0.0000969
10.370  0.8562240  0.0000973
10.390  0.8562251  0.0000966
10.410  0.8563217  0.0000980
10.430  0.8563423  0.0000978
10.450  0.8564247  0.0000970
10.470  0.8563588  0.0000957
10.490  0.8564243  0.0000980
10.510  0.8566365  0.0000969
10.530  0.8566905  0.0000968
10.550  0.8566968  0.0000962
10.570  0.8566844  0.0000967
10.590  0.8568813  0.0000942
10.610  0.8568687  0.0000968
10.630  0.8569428  0.0000955
10.650  0.8571781  0.0000963
10.670  0.8571311  0.0000966
10.690  0.8572781  0.0000979
10.710  0.8572510  0.0000971
10.730  0.8573161  0.0000964
10.750  0.8573540  0.0000969
10.770  0.8573682  0.0000962
10.790  0.8574396  0.0000960
10.810  0.8574232  0.0000955
10.830  0.8573533  0.0000959
10.850  0.8573878  0.0000973
10.870  0.8573364  0.0000961
10.890  0.8573212  0.0000978
10.910  0.8573106  0.0000944
10.930  0.8573146  0.0000977
10.950  0.8572398  0.0000972
10.970  0.8571578  0.0000958
10.990  0.8570714  0.0000966
11.010  0.8570402  0.0000958
11.030  0.8570342  0.0000969
11.050  0.8570092  0.0000971
11.070  0.8568865  0.0000971
11.090  0.8568911  0.0000960
11.110  0.8568094  0.0000966
11.130  0.8567116  0.0000968
11.150  0.8567622  0.0000960
11.170  0.8566495  0.0000959
11.190  0.8566481  0.0000967
11.210  0.8565596  0.0000968
11.230  0.8565514  0.0000966
11.250  0.8565661  0.0000955
11.270  0.8566641  0.0000958
11.290  0.8565584  0.0000959
11.310  0.8565470  0.0000964
11.330  0.8566636  0.0000963
11.350  0.8566113  0.0000975
11.370  0.8566917  0.0000964
11.390  0.8567205  0.0000957
11.410  0.8567047  0.0000975
11.430  0.8568028  0.0000954
11.450  0.8568203  0.0000977
11.470  0.8568289  0.0000988
11.490  0.8569121  0.0000980
11.510  0.8569605  0.0000952
11.530  0.8569273  0.0000970
11.550  0.8569199  0.0000966
11.570  0.8569833  0.0000984
11.590  0.8570046  0.0000974
11.610  0.8570337  0.0000975
11.630  0.8570945  0.0000994
11.650  0.8571002  0.0000974
11.670  0.8570762  0.0000976
11.690  0.8570775  0.0000972
11.710  0.8570882  0.0000963
11.730  0.8571356  0.0000971
11.750  0.8571167  0.0000964
11.770  0.8571482  0.0000971
11.790  0.8571210  0.0000965
11.810  0.8570452  0.0000971
11.830  0.8570737  0.0000952
11.850  0.8570366  0.0000964
11.870  0.8570733  0.0000962
11.890  0.8570639  0.0000967
11.910  0.8570592  0.0000975
11.930  0.8568531  0.0000973
11.950  0.8568531  0.0000973
11.970  0.8570122  0.0000965
11.990  0.8569423  0.0000981
12.010  0.8569623  0.0000972
12.030  0.8568724  0.0000962
12.050  0.8568147  0.0000965
12.070  0.8568230  0.0000968
12.090  0.8569180  0.0000961
12.110  0.8568124  0.0000963
12.130  0.8568120  0.0000960
12.150  0.8568377  0.0000973
12.170  0.8567563  0.0000970
12.190  0.8567812  0.0000954
12.210  0.8568103  0.0000961
12.230  0.8568050  0.0000959
12.250  0.8567926  0.0000952
12.270  0.8569146  0.0000965
12.290  0.8567941  0.0000984
12.310  0.8569089  0.0000969
12.330  0.8569077  0.0000978
12.350  0.8568795  0.0000969
12.370  0.8568321  0.0000969
12.390  0.8569030  0.0000978
12.410  0.8567913  0.0000954
12.430  0.8569216  0.0000959
12.450  0.8569302  0.0000959
12.470  0.8569435  0.0000977
12.490  0.8569662  0.0000963
12.510  0.8569128  0.0000949
12.530  0.8569402  0.0000970
12.550  0.8569733  0.0000979
12.570  0.8570093  0.0000960
12.590  0.8570079  0.0000962
12.610  0.8569951  0.0000961
12.630  0.8569628  0.0000964
12.650  0.8569783  0.0000982
12.670  0.8569880  0.0000949
12.690  0.8569496  0.0000990
12.710  0.8570498  0.0000996
12.730  0.8568837  0.0000976
12.750  0.8569786  0.0000957
12.770  0.8569534  0.0000979
12.790  0.8569398  0.0000973
12.810  0.8569746  0.0000988
12.830  0.8569567  0.0000985
12.850  0.8569124  0.0000964
12.870  0.8570084  0.0000975
12.890  0.8568963  0.0000968
12.910  0.8568534  0.0000988
12.930  0.8568545  0.0000964
12.950  0.8568208  0.0000968
12.970  0.8568558  0.0000962
12.990  0.8568498  0.0000969
13.010  0.8569149  0.0000971
13.030  0.8569182  0.0000970
13.050  0.8569250  0.0000979
13.070  0.8569029  0.0000965
13.090  0.8569417  0.0000963
13.110  0.8569267  0.0000954
13.130  0.8569356  0.0000971
13.150  0.8569349  0.0000959
13.170  0.8569310  0.0000965
13.190  0.8569326  0.0000985
13.210  0.8569074  0.0000980
13.230  0.8569676  0.0000967
13.250  0.8568808  0.0000962
13.270  0.8569290  0.0000968
13.290  0.8568363  0.0000959
13.310  0.8569023  0.0000979
13.330  0.8567759  0.0000962
13.350  0.8568601  0.0000967
13.370  0.8568384  0.0000976
13.390  0.8568354  0.0000962
13.410  0.8568794  0.0000959
13.430  0.8569041  0.0000964
13.450  0.8568865  0.0000956
13.470  0.8568855  0.0000962
13.490  0.8569521  0.0000961
13.510  0.8569386  0.0000990
13.530  0.8569772  0.0000973
13.550  0.8570193  0.0000976
13.570  0.8569620  0.0000976
13.590  0.8569847  0.0000984
13.610  0.8569592  0.0000977
13.630  0.8569714  0.0000979
13.650  0.8569868  0.0000973
13.670  0.8569720  0.0000982
13.690  0.8569895  0.0000985
13.710  0.8568764  0.0000957
13.730  0.8569560  0.0000964
13.750  0.8569555  0.0000948
13.770  0.8569163  0.0000960
13.790  0.8569495  0.0000969
13.810  0.8569583  0.0000964
13.830  0.8569037  0.0000974
13.850  0.8569730  0.0000971
13.870  0.8568703  0.0000958
13.890  0.8568960  0.0000984
13.910  0.8568510  0.0000984
13.930  0.8568283  0.0000975
13.950  0.8568303  0.0000944
13.970  0.8568666  0.0000951
13.990  0.8568818  0.0000964
14.010  0.8568463  0.0000966
14.030  0.8568463  0.0000979
14.050  0.8569669  0.0000946
14.070  0.8569657  0.0000967
14.090  0.8569691  0.0000951
14.110  0.8569335  0.0000959
