% Density Profile of Hard Spheres at a Hard Flat Wall: rho(z), rho(z < 0.5) = 0
% Bulk density: rho (95% CI) = 0.79231789(0.00000354)
%
% rho_i is the average density in the interval [z_i-0.01, z_i+0.01]
%
%  z_i    rho_i     95% CI 
 0.510  5.4800598  0.0002826
 0.530  4.5539622  0.0002144
 0.550  3.7978551  0.0001715
 0.570  3.1795809  0.0001387
 0.590  2.6728187  0.0001190
 0.610  2.2565963  0.0001055
 0.630  1.9141976  0.0000948
 0.650  1.6317644  0.0000896
 0.670  1.3982381  0.0000833
 0.690  1.2047763  0.0000770
 0.710  1.0441179  0.0000732
 0.730  0.9104294  0.0000697
 0.750  0.7988765  0.0000651
 0.770  0.7058350  0.0000617
 0.790  0.6278269  0.0000597
 0.810  0.5625894  0.0000565
 0.830  0.5078147  0.0000538
 0.850  0.4619328  0.0000513
 0.870  0.4235012  0.0000489
 0.890  0.3915101  0.0000487
 0.910  0.3649083  0.0000461
 0.930  0.3430711  0.0000450
 0.950  0.3253128  0.0000445
 0.970  0.3112559  0.0000438
 0.990  0.3005450  0.0000424
 1.010  0.2928712  0.0000416
 1.030  0.2880786  0.0000422
 1.050  0.2861012  0.0000412
 1.070  0.2868629  0.0000423
 1.090  0.2904599  0.0000423
 1.110  0.2970561  0.0000425
 1.130  0.3068012  0.0000436
 1.150  0.3200561  0.0000438
 1.170  0.3371443  0.0000454
 1.190  0.3586386  0.0000466
 1.210  0.3851827  0.0000478
 1.230  0.4175222  0.0000509
 1.250  0.4565966  0.0000523
 1.270  0.5032996  0.0000560
 1.290  0.5588581  0.0000573
 1.310  0.6242467  0.0000635
 1.330  0.7004992  0.0000672
 1.350  0.7879418  0.0000725
 1.370  0.8860984  0.0000795
 1.390  0.9918456  0.0000854
 1.410  1.0988442  0.0000923
 1.430  1.1996370  0.0000987
 1.450  1.2878566  0.0000999
 1.470  1.3591718  0.0001015
 1.490  1.4115229  0.0001022
 1.510  1.4400257  0.0000995
 1.530  1.4327505  0.0000966
 1.550  1.3973827  0.0000931
 1.570  1.3442234  0.0000899
 1.590  1.2808309  0.0000836
 1.610  1.2122543  0.0000820
 1.630  1.1422916  0.0000795
 1.650  1.0735304  0.0000764
 1.670  1.0075286  0.0000756
 1.690  0.9454781  0.0000717
 1.710  0.8878967  0.0000698
 1.730  0.8350885  0.0000673
 1.750  0.7871908  0.0000663
 1.770  0.7440460  0.0000654
 1.790  0.7055950  0.0000637
 1.810  0.6716749  0.0000617
 1.830  0.6419743  0.0000615
 1.850  0.6161465  0.0000609
 1.870  0.5942231  0.0000597
 1.890  0.5758507  0.0000574
 1.910  0.5608241  0.0000581
 1.930  0.5491227  0.0000568
 1.950  0.5404253  0.0000558
 1.970  0.5347624  0.0000567
 1.990  0.5320411  0.0000561
 2.010  0.5321773  0.0000559
 2.030  0.5351528  0.0000557
 2.050  0.5409311  0.0000563
 2.070  0.5494603  0.0000570
 2.090  0.5609753  0.0000572
 2.110  0.5752401  0.0000580
 2.130  0.5924286  0.0000582
 2.150  0.6124491  0.0000602
 2.170  0.6352788  0.0000610
 2.190  0.6608193  0.0000627
 2.210  0.6888235  0.0000662
 2.230  0.7191021  0.0000669
 2.250  0.7511793  0.0000688
 2.270  0.7845891  0.0000722
 2.290  0.8186155  0.0000718
 2.310  0.8522630  0.0000751
 2.330  0.8849373  0.0000752
 2.350  0.9155110  0.0000778
 2.370  0.9431776  0.0000788
 2.390  0.9670533  0.0000795
 2.410  0.9862464  0.0000795
 2.430  1.0004767  0.0000808
 2.450  1.0092455  0.0000795
 2.470  1.0126033  0.0000786
 2.490  1.0105913  0.0000779
 2.510  1.0036665  0.0000767
 2.530  0.9921676  0.0000757
 2.550  0.9768541  0.0000757
 2.570  0.9585343  0.0000732
 2.590  0.9378897  0.0000738
 2.610  0.9158204  0.0000714
 2.630  0.8928829  0.0000719
 2.650  0.8696135  0.0000695
 2.670  0.8466365  0.0000686
 2.690  0.8243052  0.0000680
 2.710  0.8029138  0.0000669
 2.730  0.7827298  0.0000658
 2.750  0.7640159  0.0000660
 2.770  0.7468606  0.0000651
 2.790  0.7313788  0.0000641
 2.810  0.7176536  0.0000643
 2.830  0.7057795  0.0000641
 2.850  0.6956519  0.0000636
 2.870  0.6873516  0.0000621
 2.890  0.6809590  0.0000633
 2.910  0.6763776  0.0000617
 2.930  0.6735145  0.0000629
 2.950  0.6724722  0.0000625
 2.970  0.6731764  0.0000616
 2.990  0.6756716  0.0000615
 3.010  0.6796807  0.0000625
 3.030  0.6852622  0.0000634
 3.050  0.6923520  0.0000640
 3.070  0.7008772  0.0000635
 3.090  0.7106809  0.0000655
 3.110  0.7216031  0.0000650
 3.130  0.7335058  0.0000648
 3.150  0.7462800  0.0000667
 3.170  0.7595808  0.0000658
 3.190  0.7732814  0.0000672
 3.210  0.7871070  0.0000692
 3.230  0.8007660  0.0000680
 3.250  0.8140516  0.0000697
 3.270  0.8266203  0.0000716
 3.290  0.8383201  0.0000726
 3.310  0.8488117  0.0000708
 3.330  0.8579719  0.0000716
 3.350  0.8655910  0.0000724
 3.370  0.8714394  0.0000730
 3.390  0.8756170  0.0000731
 3.410  0.8780247  0.0000721
 3.430  0.8786502  0.0000720
 3.450  0.8775949  0.0000726
 3.470  0.8748085  0.0000720
 3.490  0.8706567  0.0000701
 3.510  0.8651694  0.0000711
 3.530  0.8585649  0.0000712
 3.550  0.8510974  0.0000695
 3.570  0.8428791  0.0000687
 3.590  0.8341943  0.0000673
 3.610  0.8251748  0.0000672
 3.630  0.8159047  0.0000662
 3.650  0.8067537  0.0000678
 3.670  0.7978313  0.0000679
 3.690  0.7891811  0.0000675
 3.710  0.7810482  0.0000662
 3.730  0.7734684  0.0000671
 3.750  0.7665136  0.0000667
 3.770  0.7603202  0.0000655
 3.790  0.7548332  0.0000652
 3.810  0.7502315  0.0000653
 3.830  0.7464226  0.0000650
 3.850  0.7435336  0.0000650
 3.870  0.7415151  0.0000651
 3.890  0.7404347  0.0000651
 3.910  0.7401380  0.0000650
 3.930  0.7406894  0.0000644
 3.950  0.7420896  0.0000651
 3.970  0.7442850  0.0000648
 3.990  0.7471619  0.0000653
 4.010  0.7506890  0.0000657
 4.030  0.7548289  0.0000651
 4.050  0.7594715  0.0000661
 4.070  0.7644975  0.0000672
 4.090  0.7698867  0.0000676
 4.110  0.7755622  0.0000675
 4.130  0.7813122  0.0000680
 4.150  0.7871751  0.0000680
 4.170  0.7928478  0.0000672
 4.190  0.7983918  0.0000671
 4.210  0.8036934  0.0000691
 4.230  0.8086491  0.0000691
 4.250  0.8131034  0.0000701
 4.270  0.8171056  0.0000690
 4.290  0.8204933  0.0000706
 4.310  0.8232218  0.0000709
 4.330  0.8252817  0.0000696
 4.350  0.8266991  0.0000694
 4.370  0.8274705  0.0000691
 4.390  0.8275926  0.0000696
 4.410  0.8269360  0.0000687
 4.430  0.8258163  0.0000683
 4.450  0.8241282  0.0000696
 4.470  0.8218737  0.0000692
 4.490  0.8191565  0.0000691
 4.510  0.8162075  0.0000674
 4.530  0.8128123  0.0000678
 4.550  0.8092609  0.0000688
 4.570  0.8055604  0.0000687
 4.590  0.8017718  0.0000678
 4.610  0.7980253  0.0000682
 4.630  0.7942228  0.0000700
 4.650  0.7906943  0.0000665
 4.670  0.7872449  0.0000673
 4.690  0.7839121  0.0000678
 4.710  0.7810416  0.0000663
 4.730  0.7783719  0.0000664
 4.750  0.7761174  0.0000663
 4.770  0.7741277  0.0000671
 4.790  0.7725674  0.0000661
 4.810  0.7713428  0.0000661
 4.830  0.7705557  0.0000648
 4.850  0.7701649  0.0000657
 4.870  0.7701578  0.0000664
 4.890  0.7704346  0.0000671
 4.910  0.7711577  0.0000657
 4.930  0.7722797  0.0000653
 4.950  0.7736442  0.0000676
 4.970  0.7752194  0.0000678
 4.990  0.7770849  0.0000665
 5.010  0.7790815  0.0000672
 5.030  0.7813824  0.0000679
 5.050  0.7836589  0.0000673
 5.070  0.7860979  0.0000675
 5.090  0.7885008  0.0000685
 5.110  0.7909621  0.0000671
 5.130  0.7932946  0.0000680
 5.150  0.7956082  0.0000681
 5.170  0.7977256  0.0000691
 5.190  0.7997157  0.0000674
 5.210  0.8014410  0.0000688
 5.230  0.8030365  0.0000685
 5.250  0.8043566  0.0000679
 5.270  0.8054045  0.0000685
 5.290  0.8061402  0.0000675
 5.310  0.8067087  0.0000686
 5.330  0.8069757  0.0000689
 5.350  0.8069115  0.0000686
 5.370  0.8066394  0.0000679
 5.390  0.8060801  0.0000694
 5.410  0.8053332  0.0000680
 5.430  0.8043876  0.0000679
 5.450  0.8032724  0.0000680
 5.470  0.8019928  0.0000679
 5.490  0.8006239  0.0000674
 5.510  0.7991319  0.0000675
 5.530  0.7975528  0.0000681
 5.550  0.7960208  0.0000687
 5.570  0.7944373  0.0000665
 5.590  0.7928479  0.0000673
 5.610  0.7913576  0.0000675
 5.630  0.7899415  0.0000673
 5.650  0.7885535  0.0000673
 5.670  0.7873230  0.0000664
 5.690  0.7862355  0.0000660
 5.710  0.7852709  0.0000671
 5.730  0.7845249  0.0000656
 5.750  0.7838627  0.0000663
 5.770  0.7833486  0.0000669
 5.790  0.7831493  0.0000671
 5.810  0.7829539  0.0000675
 5.830  0.7830242  0.0000668
 5.850  0.7831631  0.0000668
 5.870  0.7834751  0.0000674
 5.890  0.7839859  0.0000659
 5.910  0.7845874  0.0000678
 5.930  0.7852617  0.0000675
 5.950  0.7861374  0.0000672
 5.970  0.7869865  0.0000670
 5.990  0.7879973  0.0000686
 6.010  0.7889537  0.0000675
 6.030  0.7900758  0.0000694
 6.050  0.7909833  0.0000670
 6.070  0.7920338  0.0000675
 6.090  0.7929397  0.0000673
 6.110  0.7939612  0.0000670
 6.130  0.7948907  0.0000670
 6.150  0.7956165  0.0000683
 6.170  0.7963131  0.0000675
 6.190  0.7970006  0.0000664
 6.210  0.7975045  0.0000660
 6.230  0.7978912  0.0000680
 6.250  0.7981861  0.0000670
 6.270  0.7984036  0.0000668
 6.290  0.7984279  0.0000674
 6.310  0.7983939  0.0000687
 6.330  0.7982592  0.0000690
 6.350  0.7980365  0.0000668
 6.370  0.7977037  0.0000676
 6.390  0.7972307  0.0000675
 6.410  0.7968028  0.0000683
 6.430  0.7962367  0.0000676
 6.450  0.7956513  0.0000680
 6.470  0.7949495  0.0000684
 6.490  0.7943345  0.0000679
 6.510  0.7937078  0.0000681
 6.530  0.7929871  0.0000678
 6.550  0.7923804  0.0000661
 6.570  0.7917323  0.0000674
 6.590  0.7911137  0.0000683
 6.610  0.7906419  0.0000665
 6.630  0.7901462  0.0000687
 6.650  0.7896486  0.0000667
 6.670  0.7892948  0.0000672
 6.690  0.7889490  0.0000670
 6.710  0.7887226  0.0000668
 6.730  0.7885743  0.0000669
 6.750  0.7884203  0.0000666
 6.770  0.7883916  0.0000678
 6.790  0.7884109  0.0000667
 6.810  0.7885252  0.0000682
 6.830  0.7886571  0.0000670
 6.850  0.7888605  0.0000689
 6.870  0.7891637  0.0000671
 6.890  0.7894133  0.0000678
 6.910  0.7897880  0.0000676
 6.930  0.7901827  0.0000676
 6.950  0.7906007  0.0000663
 6.970  0.7910431  0.0000673
 6.990  0.7914431  0.0000689
 7.010  0.7918521  0.0000668
 7.030  0.7923082  0.0000698
 7.050  0.7927415  0.0000671
 7.070  0.7931169  0.0000678
 7.090  0.7934892  0.0000671
 7.110  0.7937844  0.0000672
 7.130  0.7940384  0.0000670
 7.150  0.7943372  0.0000665
 7.170  0.7945685  0.0000676
 7.190  0.7947118  0.0000680
 7.210  0.7947780  0.0000675
 7.230  0.7949371  0.0000669
 7.250  0.7948870  0.0000681
 7.270  0.7947993  0.0000665
 7.290  0.7948024  0.0000676
 7.310  0.7946910  0.0000673
 7.330  0.7944690  0.0000668
 7.350  0.7942772  0.0000687
 7.370  0.7941454  0.0000681
 7.390  0.7939045  0.0000685
 7.410  0.7936147  0.0000674
 7.430  0.7933684  0.0000684
 7.450  0.7930831  0.0000683
 7.470  0.7928253  0.0000679
 7.490  0.7925629  0.0000683
 7.510  0.7922667  0.0000675
 7.530  0.7920145  0.0000679
 7.550  0.7918061  0.0000661
 7.570  0.7915555  0.0000679
 7.590  0.7913039  0.0000671
 7.610  0.7911405  0.0000664
 7.630  0.7910252  0.0000674
 7.650  0.7908936  0.0000661
 7.670  0.7908324  0.0000667
 7.690  0.7907208  0.0000675
 7.710  0.7906348  0.0000671
 7.730  0.7907205  0.0000681
 7.750  0.7906912  0.0000670
 7.770  0.7907592  0.0000661
 7.790  0.7908317  0.0000672
 7.810  0.7908902  0.0000683
 7.830  0.7910244  0.0000677
 7.850  0.7911953  0.0000672
 7.870  0.7913466  0.0000672
 7.890  0.7914727  0.0000680
 7.910  0.7916283  0.0000685
 7.930  0.7918200  0.0000686
 7.950  0.7919929  0.0000675
 7.970  0.7921273  0.0000668
 7.990  0.7923393  0.0000682
 8.010  0.7924672  0.0000663
 8.030  0.7927264  0.0000677
 8.050  0.7928362  0.0000666
 8.070  0.7929748  0.0000661
 8.090  0.7930845  0.0000668
 8.110  0.7931468  0.0000670
 8.130  0.7932645  0.0000667
 8.150  0.7932980  0.0000673
 8.170  0.7933714  0.0000677
 8.190  0.7933820  0.0000665
 8.210  0.7933730  0.0000676
 8.230  0.7933715  0.0000663
 8.250  0.7933072  0.0000677
 8.270  0.7932858  0.0000669
 8.290  0.7931960  0.0000675
 8.310  0.7931441  0.0000677
 8.330  0.7930396  0.0000672
 8.350  0.7929025  0.0000673
 8.370  0.7928443  0.0000677
 8.390  0.7927759  0.0000676
 8.410  0.7926174  0.0000684
 8.430  0.7925565  0.0000683
 8.450  0.7924021  0.0000659
 8.470  0.7922364  0.0000674
 8.490  0.7921385  0.0000674
 8.510  0.7920939  0.0000681
 8.530  0.7919870  0.0000675
 8.550  0.7918544  0.0000658
 8.570  0.7918303  0.0000666
 8.590  0.7917331  0.0000676
 8.610  0.7916936  0.0000670
 8.630  0.7916960  0.0000669
 8.650  0.7916493  0.0000671
 8.670  0.7916333  0.0000678
 8.690  0.7915826  0.0000667
 8.710  0.7916228  0.0000681
 8.730  0.7916754  0.0000680
 8.750  0.7916684  0.0000660
 8.770  0.7918068  0.0000669
 8.790  0.7918159  0.0000670
 8.810  0.7918527  0.0000679
 8.830  0.7919802  0.0000687
 8.850  0.7920022  0.0000673
 8.870  0.7920530  0.0000680
 8.890  0.7921229  0.0000673
 8.910  0.7922383  0.0000681
 8.930  0.7922760  0.0000676
 8.950  0.7923522  0.0000677
 8.970  0.7924483  0.0000674
 8.990  0.7925321  0.0000676
 9.010  0.7925743  0.0000665
 9.030  0.7926184  0.0000676
 9.050  0.7926120  0.0000681
 9.070  0.7927058  0.0000673
 9.090  0.7926980  0.0000673
 9.110  0.7927260  0.0000678
 9.130  0.7927704  0.0000668
 9.150  0.7927527  0.0000678
 9.170  0.7927594  0.0000673
 9.190  0.7927231  0.0000664
 9.210  0.7926763  0.0000680
 9.230  0.7927203  0.0000671
 9.250  0.7926568  0.0000672
 9.270  0.7926357  0.0000673
 9.290  0.7926439  0.0000665
 9.310  0.7925212  0.0000664
 9.330  0.7925124  0.0000674
 9.350  0.7925264  0.0000672
 9.370  0.7924005  0.0000665
 9.390  0.7924137  0.0000661
 9.410  0.7923436  0.0000670
 9.430  0.7923463  0.0000671
 9.450  0.7922555  0.0000668
 9.470  0.7921961  0.0000660
 9.490  0.7921416  0.0000674
 9.510  0.7921048  0.0000671
 9.530  0.7921320  0.0000674
 9.550  0.7920185  0.0000664
 9.570  0.7920290  0.0000675
 9.590  0.7919902  0.0000668
 9.610  0.7920711  0.0000671
 9.630  0.7920063  0.0000666
 9.650  0.7920250  0.0000672
 9.670  0.7920119  0.0000686
 9.690  0.7920514  0.0000665
 9.710  0.7920197  0.0000679
 9.730  0.7921251  0.0000678
 9.750  0.7920782  0.0000684
 9.770  0.7921439  0.0000682
 9.790  0.7921079  0.0000660
 9.810  0.7922004  0.0000680
 9.830  0.7922041  0.0000675
 9.850  0.7922850  0.0000687
 9.870  0.7923190  0.0000670
 9.890  0.7923393  0.0000682
 9.910  0.7923523  0.0000674
 9.930  0.7923555  0.0000677
 9.950  0.7923629  0.0000677
 9.970  0.7924894  0.0000660
 9.990  0.7924585  0.0000669
10.010  0.7924825  0.0000669
10.030  0.7925269  0.0000683
10.050  0.7925077  0.0000686
10.070  0.7925206  0.0000672
10.090  0.7925131  0.0000663
10.110  0.7924845  0.0000678
10.130  0.7925738  0.0000673
10.150  0.7925474  0.0000670
10.170  0.7925073  0.0000665
10.190  0.7925374  0.0000679
10.210  0.7924851  0.0000668
10.230  0.7924489  0.0000659
10.250  0.7924895  0.0000679
10.270  0.7923946  0.0000668
10.290  0.7923537  0.0000673
10.310  0.7924019  0.0000688
10.330  0.7923898  0.0000672
10.350  0.7923469  0.0000684
10.370  0.7923424  0.0000670
10.390  0.7923502  0.0000666
10.410  0.7922579  0.0000667
10.430  0.7922510  0.0000667
10.450  0.7922007  0.0000668
10.470  0.7922177  0.0000680
10.490  0.7921734  0.0000659
10.510  0.7922359  0.0000670
10.530  0.7921947  0.0000659
10.550  0.7921696  0.0000667
10.570  0.7921857  0.0000677
10.590  0.7921568  0.0000672
10.610  0.7921551  0.0000668
10.630  0.7921826  0.0000677
10.650  0.7921248  0.0000670
10.670  0.7922274  0.0000669
10.690  0.7921856  0.0000674
10.710  0.7922044  0.0000668
10.730  0.7922643  0.0000680
10.750  0.7922294  0.0000669
10.770  0.7921847  0.0000678
10.790  0.7922496  0.0000676
10.810  0.7923149  0.0000675
10.830  0.7923548  0.0000683
10.850  0.7924358  0.0000671
10.870  0.7923872  0.0000680
10.890  0.7924213  0.0000673
10.910  0.7923322  0.0000673
10.930  0.7924054  0.0000670
10.950  0.7923652  0.0000671
10.970  0.7924080  0.0000672
10.990  0.7924409  0.0000667
11.010  0.7923876  0.0000681
11.030  0.7924297  0.0000675
11.050  0.7924412  0.0000671
11.070  0.7924132  0.0000674
11.090  0.7923794  0.0000665
11.110  0.7924258  0.0000666
11.130  0.7924063  0.0000673
11.150  0.7924198  0.0000673
11.170  0.7923963  0.0000680
11.190  0.7923310  0.0000684
11.210  0.7923489  0.0000681
11.230  0.7923839  0.0000663
11.250  0.7923180  0.0000678
11.270  0.7923332  0.0000666
11.290  0.7923040  0.0000670
11.310  0.7923302  0.0000678
11.330  0.7922743  0.0000676
11.350  0.7923322  0.0000666
11.370  0.7922941  0.0000661
11.390  0.7922661  0.0000663
11.410  0.7923559  0.0000677
11.430  0.7923277  0.0000671
11.450  0.7923582  0.0000668
11.470  0.7923018  0.0000672
11.490  0.7922116  0.0000677
11.510  0.7922227  0.0000677
11.530  0.7922257  0.0000668
11.550  0.7922214  0.0000671
11.570  0.7922375  0.0000688
11.590  0.7922469  0.0000665
11.610  0.7922274  0.0000667
11.630  0.7922478  0.0000669
11.650  0.7922934  0.0000675
11.670  0.7923077  0.0000671
11.690  0.7922329  0.0000681
11.710  0.7923069  0.0000677
11.730  0.7923464  0.0000680
11.750  0.7922920  0.0000670
11.770  0.7922930  0.0000673
11.790  0.7922808  0.0000661
11.810  0.7923348  0.0000687
11.830  0.7923331  0.0000667
11.850  0.7922899  0.0000667
11.870  0.7923902  0.0000675
11.890  0.7923446  0.0000668
11.910  0.7923742  0.0000672
11.930  0.7923618  0.0000680
11.950  0.7924239  0.0000670
11.970  0.7923966  0.0000668
11.990  0.7923369  0.0000672
12.010  0.7923887  0.0000677
12.030  0.7923989  0.0000664
12.050  0.7923638  0.0000679
12.070  0.7923451  0.0000688
12.090  0.7923271  0.0000683
12.110  0.7922845  0.0000667
12.130  0.7923540  0.0000669
12.150  0.7923800  0.0000669
12.170  0.7923572  0.0000677
12.190  0.7922983  0.0000669
12.210  0.7922623  0.0000666
12.230  0.7923093  0.0000667
12.250  0.7922843  0.0000677
12.270  0.7922842  0.0000683
12.290  0.7923165  0.0000677
12.310  0.7922858  0.0000679
12.330  0.7922553  0.0000679
12.350  0.7922616  0.0000675
12.370  0.7923551  0.0000674
12.390  0.7922351  0.0000685
12.410  0.7922929  0.0000680
12.430  0.7922638  0.0000679
12.450  0.7923497  0.0000685
12.470  0.7923027  0.0000668
12.490  0.7923125  0.0000674
12.510  0.7922713  0.0000657
12.530  0.7923081  0.0000684
12.550  0.7922791  0.0000668
12.570  0.7923047  0.0000682
12.590  0.7923491  0.0000672
12.610  0.7923778  0.0000673
12.630  0.7923378  0.0000676
12.650  0.7923058  0.0000679
12.670  0.7923274  0.0000661
12.690  0.7923128  0.0000669
12.710  0.7923302  0.0000686
12.730  0.7923239  0.0000665
12.750  0.7923423  0.0000683
12.770  0.7923179  0.0000670
12.790  0.7922795  0.0000678
12.810  0.7923666  0.0000695
12.830  0.7923467  0.0000656
12.850  0.7923365  0.0000669
12.870  0.7922914  0.0000676
12.890  0.7923273  0.0000662
12.910  0.7923699  0.0000676
12.930  0.7923817  0.0000669
12.950  0.7922733  0.0000670
12.970  0.7923378  0.0000673
12.990  0.7922771  0.0000661
13.010  0.7923363  0.0000682
13.030  0.7922907  0.0000674
13.050  0.7923441  0.0000664
13.070  0.7923383  0.0000675
13.090  0.7923138  0.0000674
13.110  0.7923846  0.0000670
13.130  0.7923720  0.0000687
13.150  0.7923237  0.0000678
13.170  0.7923040  0.0000666
13.190  0.7922616  0.0000676
13.210  0.7923521  0.0000682
13.230  0.7922935  0.0000669
13.250  0.7922768  0.0000667
13.270  0.7923027  0.0000670
13.290  0.7923424  0.0000673
13.310  0.7922988  0.0000675
13.330  0.7923063  0.0000665
13.350  0.7923051  0.0000673
13.370  0.7923055  0.0000661
13.390  0.7923314  0.0000676
13.410  0.7923372  0.0000670
13.430  0.7922966  0.0000663
13.450  0.7922580  0.0000673
13.470  0.7923170  0.0000674
13.490  0.7923488  0.0000673
13.510  0.7923672  0.0000674
13.530  0.7922979  0.0000661
13.550  0.7923417  0.0000668
13.570  0.7922844  0.0000671
13.590  0.7923173  0.0000676
13.610  0.7922875  0.0000679
13.630  0.7923183  0.0000672
13.650  0.7922888  0.0000673
13.670  0.7922803  0.0000668
13.690  0.7923457  0.0000675
13.710  0.7923789  0.0000663
13.730  0.7923451  0.0000673
13.750  0.7923233  0.0000670
13.770  0.7923812  0.0000671
13.790  0.7923753  0.0000678
13.810  0.7923478  0.0000669
13.830  0.7923357  0.0000674
13.850  0.7923551  0.0000669
13.870  0.7922423  0.0000666
13.890  0.7923065  0.0000669
13.910  0.7923138  0.0000675
13.930  0.7922847  0.0000673
13.950  0.7923236  0.0000661
13.970  0.7923332  0.0000670
13.990  0.7923397  0.0000677
14.010  0.7923163  0.0000674
14.030  0.7922984  0.0000677
14.050  0.7923362  0.0000647
14.070  0.7923041  0.0000671
14.090  0.7923621  0.0000663
14.110  0.7923121  0.0000674
